frequency,raw
20.0,9.203
20.299999,9.22
20.6,9.249
20.9,9.28
21.200001,9.313
21.4,9.335
21.799999,9.373
22.0,9.391
22.4,9.424
22.700001,9.446
23.0,9.456
23.299999,9.449
23.6,9.437
24.0,9.421
24.299999,9.417
24.700001,9.417
25.0,9.422
25.4,9.441
25.799999,9.459
26.200001,9.465
26.5,9.461
26.9,9.441
27.200001,9.419
27.6,9.379
28.0,9.345
28.5,9.321
29.0,9.308
29.5,9.302
30.0,9.296
30.4,9.287
30.700001,9.28
31.1,9.267
31.5,9.249
32.0,9.223
32.5,9.195
33.0,9.176
33.5,9.162
34.0,9.148
34.5,9.133
35.0,9.121
35.5,9.108
36.0,9.1
36.5,9.093
37.0,9.081
37.5,9.055
38.200001,9.007
38.700001,8.962
39.5,8.883
40.0,8.837
40.599998,8.792
41.200001,8.75
41.799999,8.708
42.5,8.66
43.099998,8.616
43.700001,8.568
44.400002,8.514
45.0,8.464
45.5,8.419
46.200001,8.351
46.799999,8.296
47.5,8.228
48.200001,8.153
48.700001,8.1
49.400002,8.03
50.0,7.976
50.799999,7.912
51.5,7.857
52.200001,7.798
53.0,7.729
53.799999,7.645
54.5,7.566
55.200001,7.487
56.0,7.404
57.0,7.312
58.0,7.232
59.0,7.162
60.0,7.088
60.799999,7.015
61.5,6.942
62.200001,6.867
63.0,6.786
64.0,6.704
65.0,6.635
66.0,6.568
67.0,6.503
68.0,6.434
69.0,6.367
70.0,6.295
71.0,6.211
72.0,6.12
73.0,6.02
74.0,5.923
75.0,5.838
76.199997,5.763
77.5,5.698
78.800003,5.637
80.0,5.576
81.199997,5.505
82.5,5.424
83.800003,5.335
85.0,5.254
86.199997,5.188
87.5,5.128
88.5,5.09
90.0,5.041
91.199997,4.997
92.5,4.958
93.800003,4.925
95.0,4.894
96.199997,4.865
97.5,4.838
98.800003,4.802
100.0,4.754
101.5,4.679
103.0,4.593
104.400002,4.512
106.0,4.421
107.5,4.34
109.0,4.274
110.599998,4.208
112.0,4.148
113.800003,4.064
115.0,4.009
117.199997,3.909
118.0,3.873
120.599998,3.77
122.0,3.721
124.099998,3.655
125.0,3.63
126.5,3.592
128.0,3.554
131.5,3.444
132.0,3.427
134.0,3.351
136.0,3.272
138.0,3.192
140.0,3.115
143.0,3.032
145.0,2.991
147.5,2.933
150.0,2.872
152.5,2.809
155.0,2.737
157.5,2.661
160.0,2.587
162.5,2.514
165.0,2.441
167.5,2.368
170.0,2.296
172.5,2.222
175.0,2.141
177.5,2.056
180.0,1.972
182.5,1.889
185.0,1.807
187.5,1.726
190.0,1.649
192.5,1.574
195.0,1.5
197.5,1.427
200.0,1.355
203.0,1.269
206.0,1.187
209.0,1.105
212.0,1.032
214.0,0.986
218.0,0.894
220.0,0.846
224.0,0.76
227.0,0.706
230.0,0.658
233.0,0.615
236.0,0.578
240.0,0.542
243.0,0.516
247.0,0.491
250.0,0.487
254.0,0.487
258.0,0.481
262.0,0.476
265.0,0.463
269.0,0.43
272.0,0.4
276.0,0.361
280.0,0.327
285.0,0.307
290.0,0.299
295.0,0.306
300.0,0.317
304.0,0.322
307.0,0.318
311.0,0.307
315.0,0.297
320.0,0.287
325.0,0.279
330.0,0.283
335.0,0.29
340.0,0.3
345.0,0.306
350.0,0.302
355.0,0.278
360.0,0.229
365.0,0.17
370.0,0.106
375.0,0.045
382.0,-0.019
387.0,-0.047
395.0,-0.081
400.0,-0.099
406.0,-0.114
412.0,-0.117
418.0,-0.114
425.0,-0.108
431.0,-0.101
437.0,-0.096
444.0,-0.087
450.0,-0.076
455.0,-0.067
462.0,-0.054
468.0,-0.043
475.0,-0.031
482.0,-0.018
487.0,-0.011
494.0,-0.003
500.0,0.0
508.0,0.002
515.0,-0.002
522.0,-0.004
530.0,-0.004
538.0,0.015
545.0,0.043
552.0,0.076
560.0,0.113
570.0,0.149
580.0,0.168
590.0,0.178
600.0,0.193
608.0,0.207
615.0,0.217
622.0,0.22
630.0,0.217
640.0,0.212
650.0,0.203
660.0,0.193
670.0,0.182
680.0,0.177
690.0,0.173
700.0,0.172
710.0,0.19
720.0,0.223
730.0,0.253
740.0,0.28
750.0,0.305
762.0,0.316
775.0,0.316
788.0,0.315
800.0,0.323
812.0,0.347
825.0,0.405
838.0,0.488
850.0,0.57
862.0,0.648
875.0,0.712
885.0,0.754
900.0,0.815
912.0,0.869
925.0,0.928
938.0,0.98
950.0,1.017
962.0,1.056
975.0,1.1
988.0,1.142
1000.0,1.181
1015.0,1.238
1030.0,1.292
1044.0,1.338
1060.0,1.395
1075.0,1.449
1090.0,1.501
1106.0,1.555
1120.0,1.601
1138.0,1.667
1150.0,1.722
1172.0,1.834
1180.0,1.875
1206.0,2.014
1220.0,2.09
1241.0,2.202
1250.0,2.254
1265.0,2.348
1280.0,2.444
1315.0,2.664
1320.0,2.696
1340.0,2.82
1360.0,2.942
1380.0,3.065
1400.0,3.193
1430.0,3.426
1450.0,3.601
1475.0,3.814
1500.0,4.028
1525.0,4.24
1550.0,4.437
1575.0,4.628
1600.0,4.82
1625.0,5.014
1650.0,5.206
1675.0,5.39
1700.0,5.575
1725.0,5.768
1750.0,5.971
1775.0,6.184
1800.0,6.396
1825.0,6.604
1850.0,6.81
1875.0,7.011
1900.0,7.201
1925.0,7.383
1950.0,7.559
1975.0,7.733
2000.0,7.908
2030.0,8.127
2060.0,8.344
2090.0,8.557
2120.0,8.765
2140.0,8.897
2180.0,9.156
2200.0,9.285
2240.0,9.541
2270.0,9.73
2300.0,9.908
2330.0,10.064
2360.0,10.202
2400.0,10.369
2430.0,10.49
2470.0,10.641
2500.0,10.752
2540.0,10.885
2580.0,11.017
2620.0,11.152
2650.0,11.241
2690.0,11.336
2720.0,11.406
2760.0,11.498
2800.0,11.585
2850.0,11.673
2900.0,11.764
2950.0,11.85
3000.0,11.935
3040.0,11.996
3070.0,12.037
3110.0,12.091
3150.0,12.141
3200.0,12.189
3250.0,12.221
3300.0,12.233
3350.0,12.239
3400.0,12.238
3450.0,12.233
3500.0,12.225
3550.0,12.198
3600.0,12.156
3650.0,12.108
3700.0,12.057
3750.0,12.001
3820.0,11.9
3870.0,11.82
3950.0,11.693
4000.0,11.62
4060.0,11.535
4120.0,11.457
4180.0,11.381
4250.0,11.29
4310.0,11.206
4370.0,11.12
4440.0,11.016
4500.0,10.919
4550.0,10.833
4620.0,10.705
4680.0,10.587
4750.0,10.438
4820.0,10.289
4870.0,10.182
4940.0,10.039
5000.0,9.94
5080.0,9.835
5150.0,9.747
5220.0,9.658
5300.0,9.54
5380.0,9.399
5450.0,9.264
5520.0,9.129
5600.0,8.978
5700.0,8.801
5800.0,8.637
5900.0,8.476
6000.0,8.311
6080.0,8.161
6150.0,8.029
6220.0,7.901
6300.0,7.759
6400.0,7.577
6500.0,7.388
6600.0,7.186
6700.0,6.96
6800.0,6.71
6900.0,6.458
7000.0,6.21
7100.0,5.946
7200.0,5.663
7300.0,5.374
7400.0,5.088
7500.0,4.809
7620.0,4.487
7750.0,4.145
7880.0,3.807
8000.0,3.496
8120.0,3.183
8250.0,2.855
8380.0,2.535
8500.0,2.239
8620.0,1.935
8750.0,1.617
8850.0,1.383
9000.0,1.038
9120.0,0.759
9250.0,0.459
9380.0,0.161
9500.0,-0.112
9620.0,-0.38
9750.0,-0.659
9880.0,-0.93
10000.0,-1.179
10150.0,-1.483
10300.0,-1.761
10440.0,-1.999
10600.0,-2.248
10750.0,-2.464
10900.0,-2.67
11060.0,-2.874
11200.0,-3.046
11380.0,-3.256
11500.0,-3.388
11720.0,-3.608
11800.0,-3.678
12060.0,-3.874
12200.0,-3.971
12410.0,-4.076
12500.0,-4.113
12650.0,-4.177
12800.0,-4.239
13150.0,-4.359
13200.0,-4.372
13400.0,-4.403
13600.0,-4.417
13800.0,-4.418
14000.0,-4.413
14300.0,-4.428
14500.0,-4.448
14750.0,-4.464
15000.0,-4.49
15250.0,-4.587
15500.0,-4.731
15750.0,-4.882
16000.0,-5.063
16250.0,-5.328
16500.0,-5.629
16750.0,-5.956
17000.0,-6.336
17250.0,-6.824
17500.0,-7.391
17750.0,-8.02
18000.0,-8.728
18250.0,-9.549
18500.0,-10.453
18750.0,-11.39
19000.0,-12.37
19250.0,-13.454
19500.0,-14.601
19750.0,-15.679
20000.0,-16.632
